# V(Volt) | i_salita(A) | i_discesa(A)
29      0.01
32      0.01
34      0.01
36      0.02
38  0.03
41  0.06
42  0.07
43  0.08
44  0.09
46  0.16
48  0.24
50  0.32
53     0.41
56  0.49
64  0.67
74  0.86
85       1.04
95       1.19
100  1.28
103  1.32
107  1.38
111  1.43
115   1.49
121  1.5
126  1.64
133  1.73
137  1.79
141  1.84
147  1.93
154  2.03
162  2.15
170  2.28
178  2.40
188  2.56
198  2.73
208  2.92
217  3.08
227  3.32
241  3.73
